OOIBase32 Version 2.0.5.2 Data File	
++++++++++++++++++++++++++++++++++++	
"Date: 09-30-2011, 11:51:07"	
User: Valued Ocean Optics Customer	
Spectrometer Serial Number: I2J345	
Spectrometer Channel: Master	
Integration Time (msec): 100	
Spectra Averaged: 1	
Boxcar Smoothing: 0	
Correct for Electrical Dark: Enabled	
Time Normalized: Disabled	
Dual-beam Reference: Disabled	
Reference Channel: Master	
Temperature: Not acquired	
Spectrometer Type: S2000	
ADC Type: USB2000	
Number of Pixels in File: 2048	
Graph Title: 	
>>>>>Begin Spectral Data<<<<<	
370.53	-0.00014507
370.9	-0.00014507
371.28	0.000164926
371.66	0.000128502
372.03	0.000252867
372.41	0.004475292
372.79	0.002394007
373.16	0.000946418
373.54	0.001951109
373.92	0.001319594
374.29	0.00133765
374.67	0.001707518
375.05	0.002867684
375.42	0.00217482
375.8	0.00204375
376.18	0.002620428
376.55	0.002500691
376.93	0.003692141
377.31	0.002685626
377.68	0.001594138
378.06	0.002533121
378.43	0.002781592
378.81	0.00239769
379.19	0.002237846
379.56	0.001421754
379.94	0.0007899
380.31	0.003649351
380.69	0.00133765
381.07	0.002213443
381.44	0.002665755
381.82	0.001377132
382.19	0.00139735
382.57	0.00228735
382.94	0.002923719
383.32	0.002000612
383.7	0.001648166
384.07	0.002770589
384.45	0.002676115
384.82	0.003143426
385.2	0.003557397
385.57	0.002888259
385.95	0.002047754
386.32	0.00252395
386.7	0.002136043
387.07	0.00409661
387.45	0.003733107
387.83	0.001830052
388.2	0.001195854
388.58	0.001958266
388.95	0.002352886
389.33	0.002338668
389.7	0.001750308
390.08	0.001462711
390.45	0.002164799
390.83	0.002103102
391.2	0.00339321
391.58	0.002599517
391.95	0.002408746
392.32	0.002767897
392.7	0.003450382
393.07	0.004142109
393.45	0.002877881
393.82	0.003167658
394.2	0.002776095
394.57	0.002010982
394.95	0.001691304
395.32	0.009381784
395.7	0.004049459
396.07	0.003276165
396.45	0.001883915
396.82	0.002575285
397.19	0.002495022
397.57	0.001805648
397.94	0.002473239
398.32	0.002789261
398.69	0.001988402
399.07	0.003607873
399.44	0.00346328
399.81	0.00284546
400.19	0.001988749
400.56	0.002554199
400.94	0.002416588
401.31	0.003233367
401.68	0.002860181
402.06	0.003244084
402.43	0.009802631
402.8	0.003042076
403.18	0.003335518
403.55	0.003380322
403.93	0.003026043
404.3	0.002548362
404.67	0.002197392
405.05	0.001422266
405.42	0.002525782
405.79	0.001983877
406.17	0.003366115
406.54	0.003228842
406.91	0.022751927
407.29	0.004070382
407.66	0.004718962
408.03	0.002964165
408.41	0.002702527
408.78	0.002288028
409.15	0.002517593
409.53	0.015931496
409.9	0.003163993
410.27	0.002543481
410.65	0.002291874
411.02	0.002597336
411.39	0.002678912
411.76	0.002467394
412.14	0.002020831
412.51	0.001914156
412.88	0.003944973
413.26	0.003583121
413.63	0.004071519
414	0.003565595
414.37	0.002217107
414.75	0.002233661
415.12	0.002646492
415.49	0.002160438
415.86	0.002248564
416.24	0.001208585
416.61	0.014382027
416.98	0.002956148
417.35	0.001366753
417.73	0.001524756
418.1	0.002503567
418.47	0.001963138
418.84	0.003767708
419.21	0.003385369
419.59	0.003227358
419.96	0.00227784
420.33	0.002706364
420.7	0.002655029
421.07	0.002398368
421.45	0.00294795
421.82	0.003139241
422.19	0.004703721
422.56	0.001527447
422.93	0.002332659
423.31	0.002776086
423.68	0.0026512
424.05	0.002800838
424.42	0.001951805
424.79	0.005302102
425.16	0.006381387
425.54	0.002784103
425.91	0.003411249
426.28	0.003084875
426.65	0.002961993
427.02	0.002755347
427.39	0.002279499
427.76	0.003155812
428.13	0.001980221
428.51	0.003730935
428.88	0.003621107
429.25	0.002379634
429.62	0.002118969
429.99	0.002583659
430.36	0.002133708
430.73	0.00155788
431.1	0.001100582
431.47	0.002418595
431.85	0.0019451
432.22	0.003775289
432.59	0.002866547
432.96	0.001708205
433.33	0.001672049
433.7	0.003245916
434.07	0.001926705
434.44	0.003524628
434.81	0.003159451
435.18	0.003194069
435.55	0.002220147
435.92	0.003081557
436.29	0.002314264
436.66	0.002458241
437.03	0.002582615
437.4	0.010177979
437.77	0.003594011
438.14	0.002664539
438.51	0.00232029
438.89	0.002485789
439.26	0.002627933
439.63	0.003651011
440	0.00262392
440.37	0.001996775
440.74	0.004503092
441.11	0.003056467
441.48	0.002099437
441.85	0.003352592
442.22	0.002166979
442.58	0.003362102
442.95	0.002507396
443.32	0.001339658
443.69	0.002702179
444.06	0.002666892
444.43	0.002766056
444.8	0.002645007
445.17	0.001832232
445.54	0.002011321
445.91	0.005532527
446.28	0.003241392
446.65	0.002601869
447.02	0.003602384
447.39	0.004147945
447.76	0.002931744
448.13	0.00183258
448.5	0.002632466
448.87	0.002209778
449.23	0.01052373
449.6	0.005384894
449.97	0.002837619
450.34	0.00352865
450.71	0.002303903
451.08	0.00355889
451.45	0.002129678
451.82	0.002811999
452.19	0.002980891
452.56	0.002453716
452.92	0.002473768
453.29	0.002135695
453.66	0.005771941
454.03	0.002545314
454.4	0.003036579
454.77	0.002300238
455.14	0.002084707
455.5	0.003632625
455.87	0.002521769
456.24	0.002318277
456.61	0.002856353
456.98	0.003651879
457.35	0.002986745
457.71	0.001972196
458.08	0.002287341
458.45	0.002246027
458.82	0.008791747
459.19	0.003350759
459.55	0.0024803
459.92	0.003152755
460.29	0.003534138
460.66	0.005739512
461.03	0.00355156
461.39	0.00247864
461.76	0.003958998
462.13	0.002115304
462.5	0.008208712
462.87	0.002421287
463.23	0.002172476
463.6	0.002286993
463.97	0.002552018
464.34	0.002627933
464.7	0.002759524
465.07	0.002974534
465.44	0.001834064
465.81	0.003009308
466.17	0.002302419
466.54	0.001962174
466.91	0.002504704
467.28	0.002636122
467.64	0.002736952
468.01	0.002369612
468.38	0.003153632
468.74	0.002308428
469.11	0.003570467
469.48	0.002437154
469.84	0.001623242
470.21	0.001937075
470.58	0.002582963
470.95	0.001826395
471.31	0.002027196
471.68	0.001180335
472.05	0.002111119
472.41	0.001827708
472.78	0.002592637
473.15	0.004020183
473.51	0.002190687
473.88	0.001613045
474.25	0.002053599
474.61	0.001672397
474.98	0.005616631
475.35	0.004236062
475.71	0.002106767
476.08	0.001727389
476.44	0.001647307
476.81	0.001624735
477.18	0.001034882
477.54	0.001909979
477.91	0.002297538
478.27	0.002019971
478.64	0.005770108
479.01	0.002300238
479.37	0.00221379
479.74	0.001366762
480.1	0.002564916
480.47	0.002775566
480.84	0.003210456
481.2	0.002477772
481.57	0.002306075
481.93	0.002851305
482.3	0.002849473
482.67	0.002181013
483.03	0.001996079
483.4	0.00353849
483.76	0.002807022
484.13	0.002090553
484.49	0.003881088
484.86	0.00283761
485.22	0.002853486
485.59	0.001912323
485.95	0.002409605
486.32	0.001524756
486.68	0.008756634
487.05	0.003368806
487.41	0.003975213
487.78	0.002175177
488.14	0.003010863
488.51	0.002661561
488.87	0.00253564
489.24	0.002701668
489.6	0.002216482
489.97	0.002357063
490.33	0.002606846
490.7	0.002257101
491.06	0.002130198
491.43	0.001968531
491.79	0.001637276
492.16	0.002080183
492.52	0.002304251
492.89	0.001772368
493.25	0.001965491
493.62	0.003100116
493.98	0.003065004
494.34	0.002618075
494.71	0.003536667
495.07	0.003304921
495.44	0.001700805
495.8	0.001266435
496.17	0.001592306
496.53	0.002894443
496.89	0.002574426
497.26	0.002281496
497.62	0.002163592
497.99	0.002244542
498.35	0.003050265
498.71	0.001832232
499.08	0.002538332
499.44	0.001847134
499.81	0.002191383
500.17	0.003432335
500.53	0.001852971
500.9	0.002012294
501.26	0.002331963
501.62	0.002065801
501.99	0.001671529
502.35	0.002762852
502.71	0.001358216
503.08	0.002428626
503.44	0.00350607
503.8	0.002094557
504.17	0.002568929
504.53	0.002207936
504.89	0.002328994
505.26	0.001813673
505.62	0.002383994
505.98	0.002205417
506.35	0.003140387
506.71	0.001979873
507.07	0.002121488
507.44	0.003560723
507.8	0.009065414
508.16	0.003884752
508.53	0.002168464
508.89	0.002948462
509.25	0.001986578
509.61	0.003179512
509.98	0.002299891
510.34	0.003788447
510.7	0.002220147
511.06	0.001754321
511.43	0.002488142
511.79	0.002063969
512.15	0.003270946
512.51	0.002205417
512.88	0.00220943
513.24	0.004227689
513.6	0.002898456
513.96	0.001602675
514.33	0.001233164
514.69	0.003146928
515.05	0.00187285
515.41	0.00302151
515.77	0.001624735
516.14	0.001214596
516.5	0.002203237
516.86	0.001600495
517.22	0.002865688
517.58	0.001967324
517.95	0.0031267
518.31	0.006086122
518.67	0.002022663
519.03	0.002264769
519.39	0.003180207
519.75	0.002207597
520.12	0.001916327
520.48	0.002890422
520.84	0.011945256
521.2	0.002566401
521.56	0.002889919
521.92	0.002143712
522.28	0.002336835
522.65	0.003299432
523.01	0.002870203
523.37	0.003162777
523.73	0.002534319
524.09	0.001741432
524.45	0.004035606
524.81	0.007655298
525.17	0.002381466
525.53	0.002695127
525.89	0.002219799
526.26	0.00274681
526.62	0.00275718
526.98	0.001266096
527.34	0.001604508
527.7	0.003071013
528.06	0.004459791
528.42	0.002613551
528.78	0.003458928
529.14	0.002048274
529.5	0.002535813
529.86	0.002246722
530.22	0.001965491
530.58	0.003153112
530.94	0.00284494
531.3	0.002161768
531.66	0.003193894
532.02	0.012925099
532.38	0.004215148
532.74	0.00334824
533.11	0.00252143
533.47	0.00271221
533.83	0.003226662
534.19	0.003396355
534.55	0.002363072
534.91	0.001979526
535.27	0.002869873
535.62	0.002994926
535.98	0.003947317
536.34	0.003116331
536.7	0.002864367
537.06	0.003387356
537.42	0.003485512
537.78	0.003483332
538.14	0.003426508
538.5	0.003331514
538.86	0.002262598
539.22	0.002217619
539.58	0.003311287
539.94	0.002406566
540.3	0.004418988
540.66	0.00628509
541.02	0.003860521
541.38	0.005349773
541.74	0.005402941
542.1	0.005864415
542.45	0.003665557
542.81	0.005257488
543.17	0.005392224
543.53	0.004404442
543.89	0.003473301
544.25	0.006447096
544.61	0.00396632
544.97	0.005118036
545.33	0.004371309
545.68	0.003964496
546.04	0.005164491
546.4	0.005078554
546.76	0.004297072
547.12	0.003917702
547.48	0.00516483
547.84	0.004672767
548.19	0.004799843
548.55	0.00436444
548.91	0.006009687
549.27	0.005182877
549.63	0.006283874
549.99	0.005437194
550.34	0.006375031
550.7	0.00581341
551.06	0.006049168
551.42	0.005957039
551.78	0.007003044
552.13	0.008712611
552.49	0.006874753
552.85	0.00611889
553.21	0.010160914
553.57	0.009047539
553.92	0.009936221
554.28	0.008438771
554.64	0.008423538
555	0.008942515
555.35	0.010932019
555.71	0.009624211
556.07	0.009818317
556.43	0.01064477
556.78	0.012067608
557.14	0.011997886
557.5	0.011743587
557.86	0.013936592
558.21	0.012848761
558.57	0.013642282
558.93	0.013915671
559.28	0.014860394
559.64	0.014963501
560	0.014794504
560.36	0.016187736
560.71	0.017277738
561.07	0.017850742
561.43	0.017690048
561.78	0.01965646
562.14	0.020487282
562.5	0.022559221
562.85	0.022294535
563.21	0.022816846
563.57	0.024738799
563.92	0.025166187
564.28	0.027804557
564.64	0.037781361
564.99	0.029983174
565.35	0.030411187
565.71	0.032253397
566.06	0.031924997
566.42	0.034107288
566.78	0.036027695
567.13	0.038446062
567.49	0.039537447
567.84	0.04058643
568.2	0.043966456
568.56	0.043493812
568.91	0.045348235
569.27	0.047611578
569.62	0.051403377
569.98	0.050343778
570.34	0.054068202
570.69	0.059164429
571.05	0.059117194
571.4	0.061670662
571.76	0.066364317
572.12	0.068541724
572.47	0.070410178
572.83	0.073808497
573.18	0.077893632
573.54	0.089015787
573.89	0.086538225
574.25	0.090332289
574.6	0.092601036
574.96	0.096967531
575.31	0.101195883
575.67	0.109263535
576.02	0.111461674
576.38	0.116455128
576.74	0.126545762
577.09	0.129698222
577.45	0.134541176
577.8	0.14536499
578.16	0.147752103
578.51	0.153267138
578.86	0.159347832
579.22	0.177050751
579.57	0.171801317
579.93	0.182311071
580.28	0.195685899
580.64	0.199106572
580.99	0.208620852
581.35	0.217854541
581.7	0.222073801
582.06	0.236794187
582.41	0.242188813
582.77	0.258999094
583.12	0.268826956
583.47	0.279704324
583.83	0.29150083
584.18	0.305346408
584.54	0.320234888
584.89	0.331777346
585.25	0.346347183
585.6	0.36527406
585.95	0.375708068
586.31	0.389999943
586.66	0.410836142
587.02	0.419133552
587.37	0.440512415
587.72	0.462327553
588.08	0.474760964
588.43	0.503295214
588.78	0.520783904
589.14	0.546947418
589.49	0.561604204
589.85	0.580785059
590.2	0.608194242
590.55	0.626057525
590.91	0.65220815
591.26	0.679154293
591.61	0.706256291
591.97	0.727807658
592.32	0.756131294
592.67	0.769870808
593.03	0.797625471
593.38	0.826023856
593.73	0.840615881
594.09	0.86523277
594.44	0.882721431
594.79	0.909030039
595.14	0.914319103
595.5	0.918691614
595.85	0.934878123
596.2	0.942383048
596.56	0.943192727
596.91	0.939206246
597.26	0.93674087
597.61	0.917394538
597.97	0.910017767
598.32	0.889974085
598.67	0.879054738
599.02	0.852346656
599.38	0.835661643
599.73	0.815446483
600.08	0.784588395
600.43	0.760866552
600.79	0.730132996
601.14	0.704079976
601.49	0.665952102
601.84	0.637271787
602.19	0.608874412
602.55	0.580185879
602.9	0.551188484
603.25	0.523187774
603.6	0.495759777
603.95	0.473348232
604.31	0.444836567
604.66	0.420522373
605.01	0.395836489
605.36	0.376420291
605.71	0.35113536
606.06	0.329461943
606.42	0.311826486
606.77	0.29127074
607.12	0.280397945
607.47	0.258185759
607.82	0.237714934
608.17	0.226131161
608.52	0.216172856
608.88	0.199862741
609.23	0.1893907
609.58	0.175988248
609.93	0.161442157
610.28	0.151348
610.63	0.141957931
610.98	0.132930744
611.33	0.123277999
611.69	0.113032986
612.04	0.108474323
612.39	0.109891538
612.74	0.095246958
613.09	0.089504281
613.44	0.083095933
613.79	0.078269032
614.14	0.073127341
614.49	0.067126255
614.84	0.063953147
615.19	0.057284046
615.54	0.055903834
615.89	0.052284156
616.24	0.048826148
616.59	0.045640508
616.94	0.048480245
617.29	0.041076973
617.64	0.036671788
617.99	0.035710079
618.35	0.031514352
618.7	0.03323316
619.05	0.029462284
619.4	0.027692222
619.75	0.026193574
620.1	0.0246407
620.45	0.023015837
620.79	0.021941432
621.14	0.022929736
621.49	0.020740396
621.84	0.018688069
622.19	0.018021269
622.54	0.016630842
622.89	0.016760089
623.24	0.015369499
623.59	0.017046826
623.94	0.012954788
624.29	0.013381837
624.64	0.011736763
624.99	0.011720201
625.34	0.010902442
625.69	0.010868987
626.04	0.010108234
626.39	0.009437267
626.74	0.008859432
627.08	0.00881561
627.43	0.008643398
627.78	0.00745578
628.13	0.008483739
628.48	0.008091819
628.83	0.008731863
629.18	0.006496579
629.53	0.005640503
629.88	0.006644221
630.22	0.006158012
630.57	0.01164919
630.92	0.007290457
631.27	0.011615206
631.62	0.00528388
631.97	0.007304319
632.32	0.005005516
632.66	0.005036624
633.01	0.004602879
633.36	0.005327026
633.71	0.008165902
634.06	0.004920716
634.41	0.004158487
634.75	0.009378274
635.1	0.004621961
635.45	0.003541016
635.8	0.004049111
636.15	0.003374468
636.49	0.004231865
636.84	0.003606204
637.19	0.003216804
637.54	0.007804746
637.88	0.016814002
638.23	0.004378986
638.58	0.004211135
638.93	0.003581122
639.27	0.003271814
639.62	0.003382145
639.97	0.003361763
640.32	0.003323488
640.66	0.002265977
641.01	0.003233367
641.36	0.003663733
641.71	0.003579456
642.05	0.003491001
642.4	0.002330826
642.75	0.002751343
643.1	0.003241913
643.44	0.003720288
643.79	0.002845808
644.14	0.006123935
644.48	0.003135237
644.83	0.002950303
645.18	0.001886087
645.52	0.001840778
645.87	0.001935242
646.22	0.00281086
646.56	0.012703221
646.91	0.003442713
647.26	0.006717628
647.6	0.00262392
647.95	0.003224482
648.3	0.00235523
648.64	0.002595165
648.99	0.003071352
649.33	0.00235523
649.68	0.002248216
650.03	0.002615556
650.37	0.002150078
650.72	0.002111292
651.07	0.003598372
651.41	0.002324633
651.76	0.007062221
652.1	0.003245057
652.45	0.001662019
652.8	0.003257259
653.14	0.002060312
653.49	0.003332209
653.83	0.007302331
654.18	0.003301265
654.52	0.002286377
654.87	0.001955981
655.22	0.002960395
655.56	0.001787601
655.91	0.002373268
656.25	0.002082007
656.6	0.002488829
656.94	0.002437154
657.29	0.002305736
657.63	0.002889571
657.98	0.002681952
658.32	0.002127845
658.67	0.00169496
659.01	0.00252143
659.36	0.002981587
659.7	0.002498859
660.05	0.002568224
660.39	0.003072664
660.74	0.001504537
661.08	0.001873537
661.43	0.001672397
661.77	0.001963302
662.12	0.002433141
662.46	0.002359243
662.81	0.003786623
663.15	0.002521267
663.49	0.002451536
663.84	0.003175683
664.18	0.00226747
664.53	0.004153443
664.87	0.006266348
665.22	0.002870221
665.56	0.002660015
665.9	0.002272967
666.25	0.00260101
666.59	0.002383994
666.94	0.001649478
667.28	0.002340857
667.63	0.002193563
667.97	0.00131996
668.31	0.003042596
668.66	0.001783597
669	0.002753167
669.34	0.003030403
669.69	0.002905508
670.03	0.002593341
670.38	0.002045582
670.72	0.00181785
671.06	0.001789442
671.41	0.001860648
671.75	0.002131858
672.09	0.0020312
672.44	0.001908658
672.78	0.001502184
673.12	0.002644312
673.47	0.002902641
673.81	0.002423467
674.15	0.002124189
674.49	0.003176551
674.84	0.001606697
675.18	0.002098917
675.52	0.001704818
675.87	0.001239859
676.21	0.00331966
676.55	0.00303538
676.89	0.002257101
677.24	0.001799811
677.58	0.00139821
677.92	0.001421754
678.27	0.00185245
678.61	0.005239093
678.95	0.003270329
679.29	0.008065603
679.64	0.002102755
679.98	0.002457893
680.32	0.003306753
680.66	0.002043393
681	0.012890335
681.35	0.002737309
681.69	0.003108653
682.03	0.002783416
682.37	0.001876238
682.71	0.001473081
683.06	0.002142748
683.4	0.00356629
683.74	0.002966518
684.08	0.002467403
684.42	0.001191841
684.77	0.001698286
685.11	0.001694457
685.45	0.0020563
685.79	0.001692788
686.13	0.00243315
686.47	0.001386624
686.81	0.002713861
687.16	0.002390003
687.5	0.001627775
687.84	0.001957302
688.18	0.00265383
688.52	0.001748137
688.86	0.002420948
689.2	0.001089699
689.54	0.001852632
689.89	0.003725429
690.23	0.002527615
690.57	0.002085055
690.91	0.002097085
691.25	0.002218315
691.59	0.00231244
691.93	0.001826743
692.27	0.002010461
692.61	0.001926705
692.95	0.002250396
693.29	0.002437493
693.63	0.002474099
693.97	0.001226962
694.32	0.002128991
694.66	0.002004616
695	0.001791613
695.34	0.001405539
695.68	0.001329452
696.02	0.001536966
696.36	0.002114956
696.7	0.002898628
697.04	0.001534438
697.38	0.001115762
697.72	0.001909622
698.06	0.000922014
698.4	0.002065453
698.74	0.001499665
699.08	0.002469931
699.42	0.001491824
699.76	0.001678754
700.1	0.005546918
700.44	0.003339694
700.78	0.002798485
701.11	0.001325448
701.45	0.001951109
701.79	0.003003819
702.13	0.001217288
702.47	0.00204323
702.81	0.003323827
703.15	0.001604499
703.49	0.002441678
703.83	0.003005991
704.17	0.001436475
704.51	0.001951109
704.85	0.006974116
705.19	0.002683273
705.52	0.002118969
705.86	0.003031879
706.2	0.00189795
706.54	0.001957302
706.88	0.001591958
707.22	0.001899434
707.56	0.003251075
707.9	0.003335179
708.23	0.001982054
708.57	0.001725904
708.91	0.001973508
709.25	0.001983877
709.59	0.001327281
709.93	0.005070886
710.27	0.002486657
710.6	0.002456069
710.94	0.001996775
711.28	0.001692963
711.62	0.001559885
711.96	0.002908998
712.29	0.002098751
712.63	0.001329452
712.97	0.001405887
713.31	0.001483626
713.65	0.001446497
713.98	0.00295832
714.32	0.001481957
714.66	0.001883559
715	0.001382968
715.33	0.002160274
715.67	0.003208963
716.01	0.003419794
716.35	0.004031073
716.68	0.003029535
717.02	0.002534944
717.36	0.002207597
717.7	0.002549674
718.03	0.003338835
718.37	0.002164451
718.71	0.002332659
719.05	0.004379855
719.38	0.002123502
719.72	0.001893078
720.06	0.001861344
720.39	0.001330937
720.73	0.002602834
721.07	0.003382841
721.4	0.003848147
721.74	0.003819555
722.08	0.003060991
722.41	0.001946933
722.75	0.001735414
723.09	0.001615225
723.42	0.002767549
723.76	0.004673644
724.1	0.001901954
724.43	0.002494846
724.77	0.002539477
725.11	0.001850627
725.44	0.002589668
725.78	0.002664887
726.11	0.00125973
726.45	0.002443511
726.79	0.002323149
727.12	0.001776892
727.46	0.002088025
727.79	0.001852971
728.13	0.003545715
728.47	0.002954655
728.8	0.001685911
729.14	0.002496854
729.47	0.002176498
729.81	0.002203585
730.14	0.003112318
730.48	0.002170653
730.82	0.002020831
731.15	0.001319091
731.49	0.002155923
731.82	0.00290298
732.16	0.002186686
732.49	0.001296868
732.83	0.002402389
733.16	0.001748484
733.5	0.001711183
733.83	0.001807837
734.17	0.001363097
734.5	0.002314264
734.84	0.001422441
735.17	0.002460073
735.51	0.00235305
735.84	0.002219799
736.18	0.004006669
736.51	0.002685965
736.85	0.002427132
737.18	0.002082545
737.52	0.001471257
737.85	0.001574884
738.19	0.000956267
738.52	0.002038878
738.85	0.001604847
739.19	0.002364454
739.52	0.00169714
739.86	0.00160886
740.19	0.001715187
740.53	0.002418768
740.86	0.007558811
741.19	0.002566409
741.53	0.003048789
741.86	0.002716222
742.2	0.00272172
742.53	0.001235335
742.86	0.00236778
743.2	0.002494846
743.53	0.002383647
743.86	0.003590694
744.2	0.002612075
744.53	0.001678938
744.86	0.001643981
745.2	0.001580452
745.53	0.002691471
745.87	0.002521778
746.2	0.002212469
746.53	0.001498867
746.87	0.001371105
747.2	0.002263276
747.53	0.002310956
747.86	0.003007127
748.2	0.002480473
748.53	0.002984556
748.86	0.006658615
749.2	0.003193894
749.53	0.003193721
749.86	0.00235087
750.2	0.002466778
750.53	0.00153661
750.86	0.002145544
751.19	0.001900121
751.53	0.002287332
751.86	0.002800665
752.19	0.00105859
752.52	0.001868665
752.86	0.003036231
753.19	0.00147124
753.52	0.002316453
753.85	0.002482828
754.19	0.00233754
754.52	0.00307955
754.85	0.001748823
755.18	0.001490503
755.51	0.001206571
755.85	0.001844434
756.18	0.002044714
756.51	0.002205765
756.84	0.001430291
757.17	0.001806004
757.51	0.002291354
757.84	0.002562397
758.17	0.007614332
758.5	0.003684472
758.83	0.001932542
759.16	0.001926001
759.49	0.004027417
759.83	0.002155923
760.16	0.001298855
760.49	0.00766783
760.82	0.002900809
761.15	0.002826902
761.48	0.001376611
761.81	0.003120335
762.14	0.001924525
762.48	0.010275787
762.81	0.003442541
763.14	0.001588293
763.47	0.00101832
763.8	0.003992123
764.13	0.001901267
764.46	0.000939722
764.79	0.001877211
765.12	0.001529116
765.45	0.001282658
765.78	0.002287689
766.11	0.001268624
766.44	0.0020563
766.78	0.001553529
767.11	0.001405539
767.44	0.002671582
767.77	0.001487463
768.1	0.002419288
768.43	0.004781456
768.76	0.002287341
769.09	0.001618881
769.42	0.005433529
769.75	0.002069986
770.08	0.002004616
770.41	0.002445004
770.74	0.001755814
771.07	0.001672397
771.4	0.001926357
771.73	0.002123841
772.06	0.00236778
772.39	0.00554875
772.71	0.00196583
773.04	0.00182003
773.37	0.001993908
773.7	0.001864305
774.03	0.001550644
774.36	0.000964465
774.69	0.008735548
775.02	0.014359637
775.35	0.002658878
775.68	0.002219279
776.01	0.001741762
776.34	0.00425244
776.67	0.002042265
777	0.005262004
777.32	0.002105794
777.65	0.001352371
777.98	0.001935242
778.31	0.00160416
778.64	0.002593844
778.97	0.002303903
779.3	0.002310269
779.62	0.002412923
779.95	0.002712549
780.28	0.006718496
780.61	0.003296904
780.94	0.002501039
781.27	0.001737758
781.6	0.002607706
781.92	0.003031879
782.25	0.002256753
782.58	0.000752947
782.91	0.007174222
783.24	0.002431309
783.56	0.002328646
783.89	0.002424265
784.22	0.002810348
784.55	0.00252091
784.88	0.001614705
785.2	0.00171702
785.53	0.002445343
785.86	0.001209099
786.19	0.00121424
786.51	0.001526588
786.84	0.001131013
787.17	0.002061961
787.5	0.001822383
787.82	0.00157392
788.15	0.001374604
788.48	0.002740965
788.81	0.002209778
789.13	0.001288495
789.46	0.003147439
789.79	0.001826395
790.11	0.002650505
790.44	0.003452042
790.77	0.007794213
791.09	0.002280975
791.42	0.003503889
791.75	0.002396196
792.08	0.001927573
792.4	0.001281165
792.73	0.001500352
793.06	0.001073651
793.38	0.00230241
793.71	0.00382495
794.03	0.001854631
794.36	0.004394924
794.69	0.005311498
795.01	0.002630277
795.34	0.002010461
795.67	0.002137876
795.99	0.002172129
796.32	0.001848099
796.64	0.002674908
796.97	0.00391587
797.3	0.003928758
797.62	0.00137529
797.95	0.001037226
798.27	0.001492335
798.6	0.001395342
798.93	0.001910491
799.25	0.007323757
799.58	0.002181022
799.9	0.001623589
800.23	0.003266839
800.55	0.002114956
800.88	0.001629259
801.2	0.00177506
801.53	0.0082731
801.86	0.003939136
802.18	0.002174829
802.51	0.002279663
802.83	0.000958967
803.16	0.000925679
803.48	0.002244031
803.81	0.003908019
804.13	0.001657676
804.46	0.003277998
804.78	0.002353059
805.11	0.002275139
805.43	0.002911169
805.75	0.002418072
806.08	0.002143721
806.4	0.011324476
806.73	0.011929398
807.05	0.002984556
807.38	0.001801296
807.7	0.001925498
808.03	0.002492502
808.35	0.001742119
808.67	0.001850279
809	0.002968698
809.32	0.003488031
809.65	0.002429485
809.97	0.002419463
810.3	0.003867053
810.62	0.001693136
810.94	0.004897017
811.27	0.002597684
811.59	0.002185538
811.91	0.003059159
812.24	0.003112666
812.56	0.001905619
812.89	0.002172137
813.21	0.001871018
813.53	0.002371445
813.86	0.001897602
814.18	0.001928538
814.5	0.002038878
814.83	0.002246027
815.15	0.001423578
815.47	0.002088372
815.8	0.001679379
816.12	0.001376775
816.44	0.001899782
816.77	0.002396544
817.09	0.002492502
817.41	0.00191782
817.73	0.000933356
818.06	0.002348526
818.38	0.001596319
818.7	0.001893773
819.03	0.002127854
819.35	0.001734441
819.67	0.002031209
819.99	0.001840778
820.32	0.002870568
820.64	0.00174614
820.96	0.00673505
821.28	0.002570761
821.61	0.001764343
821.93	0.001912323
822.25	0.002540164
822.57	0.002222327
822.89	0.002243066
823.22	0.002392184
823.54	0.002379982
823.86	0.001711522
824.18	0.002049586
824.5	0.001960958
824.83	0.001967315
825.15	0.004537345
825.47	0.002670723
825.79	0.002362899
826.11	0.002950131
826.43	0.001480759
826.76	0.002759012
827.08	0.001259739
827.4	0.002464086
827.72	0.002089059
828.04	0.002125674
828.36	0.002191044
828.68	0.000730714
829	0.001920001
829.33	0.001587782
829.65	0.001694969
829.97	0.003791504
830.29	0.002699312
830.61	0.001745784
830.93	0.002867859
831.25	0.002600037
831.57	0.001986926
831.89	0.001797111
832.21	0.002474116
832.53	0.001702646
832.85	0.001996947
833.18	0.001281165
833.5	0.001163416
833.82	0.002923719
834.14	0.003030047
834.46	0.002283685
834.78	0.001978552
835.1	0.00208872
835.42	0.003143426
835.74	0.002777051
836.06	0.003678106
836.38	0.00262174
836.7	0.001782737
837.02	0.001721553
837.34	0.002991617
837.66	0.002720235
837.98	0.003099768
838.3	0.002853486
838.62	0.003031879
838.94	0.004198594
839.26	0.002304251
839.58	0.002726592
839.89	0.002454064
840.21	0.003300745
840.53	0.001840605
840.85	0.002152606
841.17	0.002589668
841.49	0.002207936
841.81	0.0081273
842.13	0.002327334
842.45	0.002850332
842.77	0.001558392
843.09	0.001742458
843.41	0.001795287
843.72	0.002061788
844.04	0.00196061
844.36	0.002203421
844.68	0.012631494
845	0.005621155
845.32	0.002490322
845.64	0.00163744
845.96	0.001690435
846.27	0.004363476
846.59	0.002291693
846.91	0.002402033
847.23	0.019538641
847.55	0.003744163
847.87	0.001581936
848.18	0.002002445
848.5	0.001992423
848.82	0.001244036
849.14	0.003163993
849.46	0.001633784
849.77	0.002791781
850.09	0.003872898
850.41	0.001824051
850.73	0.001021985
851.04	0.002113472
851.36	0.001645465
851.68	0.001770535
852	0.001869542
852.32	0.010479967
852.63	0.003435141
852.95	0.00180748
853.27	0.002777919
853.58	0.001879903
853.9	0.002410231
854.22	0.006547415
854.54	0.003724909
854.85	0.003401575
855.17	0.002888598
855.49	0.002164451
855.8	0.001409707
856.12	0.001248396
856.44	0.002947784
856.76	0.004682459
857.07	0.003093759
857.39	0.003392351
857.71	0.002447532
858.02	0.002634646
858.34	0.001996427
858.65	0.001388977
858.97	0.002643973
859.29	0.001635964
859.6	0.001429952
859.92	0.002801811
860.24	0.001996079
860.55	0.001776372
860.87	0.002847641
861.19	0.002010114
861.5	0.002175177
861.82	0.01287142
862.13	0.003245916
862.45	0.002408746
862.76	0.00223452
863.08	0.001927053
863.4	0.000774033
863.71	0.001563542
864.03	0.001933401
864.34	0.001736274
864.66	0.001459055
864.97	0.001442832
865.29	0.002330479
865.61	0.001352371
865.92	0.008499278
866.24	0.001506013
866.55	0.003749313
866.87	0.003098284
867.18	0.003029874
867.5	0.002642479
867.81	0.002406218
868.13	0.004998811
868.44	0.005421839
868.76	0.002387659
869.07	0.001779072
869.39	0.00121476
869.7	0.002415442
870.02	0.001108085
870.33	0.002603693
870.64	0.002735129
870.96	0.002308089
871.27	0.003194598
871.59	0.001483798
871.9	0.002230856
872.22	0.001666032
872.53	0.002836923
872.85	0.002463226
873.16	0.002145901
873.47	0.005288936
873.79	0.001588989
874.1	0.00171187
874.42	0.001693484
874.73	0.001902474
875.04	0.001795278
875.36	0.001245696
875.67	0.00165217
875.98	0.002334655
876.3	0.001537305
876.61	0.001986049
876.93	0.002299891
877.24	0.002873877
877.55	0.002795957
877.87	0.001674221
878.18	0.005532874
878.49	0.003999617
878.81	0.003368459
879.12	0.00216915
879.43	0.002763884
879.75	0.001907624
880.06	0.001403011
880.37	0.002117648
880.68	0.001830747
881	0.00211382
881.31	0.001555013
881.62	0.002892611
881.94	0.001893937
882.25	0.002508369
882.56	0.001791622
882.87	0.002228345
883.19	0.001963659
883.5	0.001733921
883.81	0.001909631
884.12	0.002537984
884.44	0.001899262
884.75	0.003167146
885.06	0.003050622
885.37	0.002357063
885.68	0.002402544
886	0.001102067
886.31	0.002736952
886.62	0.002375805
886.93	0.001316911
887.24	0.001430273
887.56	0.00652684
887.87	0.002746974
888.18	0.001711174
888.49	0.002564229
888.8	0.002913358
889.11	0.001254405
889.43	0.001296684
889.74	0.00107114
890.05	0.002000604
890.36	0.011079409
890.67	0.003377004
890.98	0.001320585
891.29	0.007097006
891.61	0.001822046
891.92	0.001850627
892.23	0.001581589
892.54	0.001930022
892.85	0.002999806
893.16	0.001832571
893.47	0.002099437
893.78	0.001226798
894.09	0.002104935
894.4	0.001750656
894.71	0.001898809
895.02	0.002398897
895.33	0.001274112
895.65	0.00165131
895.96	0.00239854
896.27	0.002579289
896.58	0.002558211
896.89	0.002410587
897.2	0.004875409
897.51	0.00255386
897.82	0.001483798
898.13	0.002890778
898.44	0.001795626
898.75	0.002049595
899.06	0.001862829
899.37	0.001684251
899.68	0.002250387
899.99	0.00143063
900.3	0.003569251
900.61	0.002024835
900.92	0.002039913
901.23	0.002665226
901.53	0.001837288
901.84	0.001822219
902.15	0.001286323
902.46	0.001843566
902.77	0.003150931
903.08	0.00213369
903.39	0.001852103
903.7	0.001224957
904.01	0.002141541
904.32	0.005316493
904.63	0.003678463
904.94	0.001914503
905.24	0.000918001
905.55	0.001374943
905.86	0.002385652
906.17	0.002738785
906.48	0.001690956
906.79	0.002248207
907.1	0.002234173
907.4	0.002010461
907.71	0.003977393
908.02	0.00244048
908.33	0.001581928
908.64	0.001770874
908.95	0.00223016
909.25	0.001997912
909.56	0.000969953
909.87	0.00236474
910.18	0.002481151
910.49	0.002009149
910.79	0.001948929
911.1	0.001853319
911.41	0.001815506
911.72	0.001561198
912.03	0.002063977
912.33	0.002677436
912.64	0.001906653
912.95	0.001787089
913.26	0.002743154
913.56	0.001848794
913.87	0.002515769
914.18	0.002466786
914.49	0.001483798
914.79	0.001136677
915.1	0.002301723
915.41	0.002234181
915.71	0.003151443
916.02	0.002765369
916.33	0.001370939
916.64	0.000985195
916.94	0.002835439
917.25	0.002246722
917.56	0.001938551
917.86	0.001764334
918.17	0.001474913
918.48	0.003589998
918.78	0.002595504
919.09	0.001597803
919.4	0.001136677
919.7	0.001760505
920.01	0.001860648
920.31	0.004629638
920.62	0.001774539
920.93	0.003228495
921.23	0.002759012
921.54	0.002718055
921.85	0.002211958
922.15	0.002884421
922.46	0.001637285
922.76	0.001605203
923.07	0.002437502
923.37	0.001510382
923.68	0.002195048
923.99	0.00117145
924.29	0.002748991
924.6	0.00127446
924.9	0.001432462
925.21	0.006360996
925.51	0.00450859
925.82	0.003245057
926.12	0.002195395
926.43	0.002199408
926.73	0.002564916
927.04	0.002328819
927.34	0.002125326
927.65	0.003380149
927.95	0.003004158
928.26	0.002523263
928.56	0.001532433
928.87	0.002038878
929.17	0.001418358
929.48	0.002305727
929.78	0.001569735
930.09	0.001820039
930.39	0.002531288
930.7	0.002851653
931	0.002181013
931.31	0.001091359
931.61	0.0020285
931.91	0.001508202
932.22	0.002422433
932.52	0.002755008
932.83	0.001575919
933.13	0.002677775
933.44	0.001619238
933.74	0.001801123
934.04	0.002045062
934.35	0.001483798
934.65	0.001553181
934.95	0.002213434
935.26	0.001210575
935.56	0.0014756
935.87	0.002116164
936.17	0.002146065
936.47	0.002846781
936.78	0.001208403
937.08	0.002027024
937.38	0.001573738
937.69	0.002252568
937.99	0.002129339
938.29	0.002685965
938.6	0.002275487
938.9	0.002312431
939.2	0.001485283
939.5	0.002667578
939.81	0.001658363
940.11	0.001922181
940.41	0.003497542
940.72	0.002547485
941.02	0.001314731
941.32	0.00148345
941.62	0.002199408
941.93	0.002450051
942.23	0.002340857
942.53	0.001107912
942.83	0.002416415
943.14	0.001504025
943.44	0.001424446
943.74	0.002216482
944.04	0.002049934
944.34	0.001772707
944.65	0.001363714
944.95	0.002014474
945.25	0.002735468
945.55	0.002467117
945.85	0.002250735
946.16	0.001578263
946.46	0.010074022
946.76	0.007495802
947.06	0.003180216
947.36	0.001367101
947.66	0.003063163
947.97	0.002556022
948.27	0.002283667
948.57	0.002392523
948.87	0.002832911
949.17	0.001801296
949.47	0.001165952
949.77	0.001323434
950.07	0.001528421
950.38	0.000955928
950.68	0.002129339
950.98	0.002777919
951.28	0.001577924
951.58	0.002147733
951.88	0.002062145
952.18	0.002357063
952.48	0.002086888
952.78	0.003050961
953.08	0.002614419
953.38	0.002357419
953.68	0.002821404
953.98	0.001552208
954.28	0.001512215
954.58	0.001674577
954.88	0.002205765
955.18	0.002312092
955.48	0.002113463
955.78	0.001686414
956.08	0.001746295
956.38	0.001401518
956.68	0.001150883
956.98	0.000915473
957.28	0.000875828
957.58	0.001196193
957.88	0.001606679
958.18	0.00078205
958.48	0.00161889
958.78	0.002020483
959.08	0.006061022
959.38	0.002855318
959.68	0.001112097
959.98	0.002062145
960.28	0.002134038
960.58	0.001368586
960.88	0.008824176
961.18	0.002602208
961.48	0.001856983
961.77	0.000888898
962.07	0.003140735
962.37	0.001391505
962.67	0.001910491
962.97	0.001200726
963.27	0.007007048
963.57	0.002763025
963.87	0.00185767
964.16	0.001377471
964.46	0.001206571
964.76	0.001910499
965.06	0.002187206
965.36	0.003145095
965.66	0.001791266
965.95	0.001617049
966.25	0.001844434
966.55	0.001503669
966.85	0.002331791
967.15	0.001760166
967.44	0.001757986
967.74	0.001476746
968.04	0.000747449
968.34	0.001890091
968.64	0.00116927
968.93	0.007626022
969.23	0.001841742
969.53	0.006988151
969.83	0.002949783
970.12	0.001519884
970.42	0.00133765
970.72	0.001548996
971.02	0.001927053
971.31	0.00310379
971.61	0.002080531
971.91	0.00155134
972.2	0.001272289
972.5	0.001259739
972.8	0.002006796
973.1	0.00274245
973.39	0.001473081
973.69	0.001925221
973.99	0.003726125
974.28	0.001875717
974.58	0.001827708
974.88	0.002929912
975.17	0.001883568
975.47	0.002312092
975.77	0.002917015
976.06	0.001563194
976.36	0.001916336
976.65	0.00167423
976.95	0.002449347
977.25	0.001487463
977.54	0.001811832
977.84	0.002136043
978.13	0.001165961
978.43	0.002408051
978.73	0.002130207
979.02	0.002496158
979.32	0.002732428
979.61	0.002787429
979.91	0.003024038
980.21	0.001951457
980.5	0.00274681
980.8	0.002402033
981.09	0.002095416
981.39	0.002010461
981.68	0.002211262
981.98	0.002820197
982.27	0.00172705
982.57	0.002219808
982.86	0.001502366
983.16	0.002234181
983.45	0.00306648
983.75	0.009550494
984.04	0.00285801
984.34	0.001780896
984.63	0.001583421
984.93	0.002562397
985.22	0.001713363
985.52	0.001585949
985.81	0.00275552
986.11	0.00241057
986.4	0.001549507
986.69	0.001591949
986.99	0.001949277
987.28	0.000804621
987.58	0.001577924
987.87	0.002684132
988.17	0.002652849
988.46	0.002990401
988.75	0.003894774
989.05	0.001988054
989.34	0.0021086
989.64	0.002687458
989.93	0.002286195
990.22	0.003987763
990.52	0.002406905
990.81	0.002956826
991.1	0.001895761
991.4	0.003054626
991.69	0.002605873
991.98	0.001974376
992.28	0.003176203
992.57	0.00278227
992.86	0.005425851
993.16	0.003539706
993.45	0.002362908
993.74	0.002255268
994.04	0.002525791
994.33	0.001594825
994.62	0.002113472
994.92	0.001916336
995.21	0.001142685
995.5	0.002904465
995.79	0.002105446
996.09	0.003237032
996.38	0.002441687
996.67	0.001782381
996.96	0.002943251
997.26	0.00169714
997.55	0.00246557
997.84	0.001331457
998.13	0.001901945
998.43	0.002828725
998.72	0.002011946
999.01	0.002502004
999.3	0.002032512
999.59	0.01023516
999.89	0.003257259
1000.18	0.002299891
1000.47	0.002122982
1000.76	0.002447532
1001.05	0.002338668
1001.34	0.001860987
1001.64	0.001789442
1001.93	0.003845975
1002.22	0.002040085
1002.51	0.003466945
1002.8	0.007380929
1003.09	0.001705677
1003.38	0.002049943
1003.68	0.002543481
1003.97	0.004451757
1004.26	0.003557058
1004.55	0.003188049
1004.84	0.002861675
1005.13	0.002997106
1005.42	0.001376775
1005.71	0.001891593
1006	0.001385312
1006.29	0.002148862
1006.58	0.00266671
1006.87	0.002351226
1007.17	0.003429643
1007.46	0.001891584
1007.75	0.002431317
1008.04	0.001510034
1008.33	0.001736274
1008.62	0.001233155
1008.91	0.001478926
1009.2	0.001717028
1009.49	0.00264432
1009.78	0.001628043
1010.07	0.002565889
1010.36	0.001875039
1010.65	0.002438995
1010.94	0.002131519
1011.23	0.00291031
1011.52	0.001956963
1011.81	0.001454522
1012.1	0.001885739
1012.39	0.001645465
1012.67	0.002825069
1012.96	0.003651183
1013.25	0.001514038
1013.54	0.00224489
1013.83	0.002214293
1014.12	0.001752141
1014.41	0.002736952
1014.7	0.003354424
1014.99	0.002494499
1015.28	0.00053594
1015.57	0.002988221
1015.86	0.001146707
1016.14	0.002223464
1016.43	0.002094565
1016.72	0.000887866
1017.01	0.001212416
1017.3	0.00174996
1017.59	0.002061797
1017.88	0.001625247
1018.16	0.001542464
1018.45	0.002843628
1018.74	0.001673882
1019.03	0.002773906
1019.32	0.001131004
1019.6	0.001611212
1019.89	0.001984398
1020.18	0.001859164
1020.47	0.002867859
1020.76	0.00372979
1021.04	0.002912838
1021.33	0.003000493
1021.62	0.001754321
1021.91	0.002788288
1022.2	0.002391663
1022.48	0.001124647
1022.77	0.002714381
1023.06	0.002152258
1023.35	0.001998259
1023.63	0.00239802
1023.92	0.001910143
1024.21	0.0020312
1024.49	0.001151579
1024.78	0.00197838
1025.07	0.002499207
1025.36	0.003153112
1025.64	0.002033033
1025.93	0.002840588
1026.22	0.002884585
1026.5	0.001821862
1026.79	0.000927172
1027.08	0.001054586
1027.36	0.00203939
1027.65	0.001756501
1027.94	0.001647298
1028.22	0.002348526
1028.51	0.001590126
1028.79	0.002792301
1029.08	0.003021857
1029.37	0.002174665
1029.65	0.001438308
1029.94	0.002271483
1030.23	0.001650971
1030.51	0.001768355
1030.8	0.002660535
1031.08	0.002070334
1031.37	0.009800799
1031.65	0.001943779
1031.94	0.001419913
1032.23	0.001195854
1032.51	0.004108829
1032.8	0.004299424
1033.08	0.002361587
1033.37	0.001857331
1033.65	0.001877722
1033.94	0.000734388
1034.22	0.002801454
1034.51	0.00185245
1034.79	0.01192687
1035.08	0.002541649
1035.36	0.003080514
1035.65	0.002178137
1035.93	0.002935582
1036.22	0.002651998
1036.5	0.003080862
1036.79	0.0016941
1037.07	0.001545155
1037.36	0.002560044
1037.64	0.002134047
1037.93	0.001890272
1038.21	0.001458699
1038.5	0.001397523
1038.78	0.000633105
1039.06	0.00165217
1039.35	0.003093412
1039.63	0.004509449
1039.92	0.002353406
1040.2	0.001901954
1040.48	0.002551846
1040.77	0.001848446
1041.05	0.002775566
1041.34	0.00133198
1041.62	0.00177506
1041.9	0.001543323
1042.19	0.001955113
1042.47	0.001725557
1042.75	0.00095862
1043.04	0.001982565
1043.32	0.003048789
1043.6	0.001762162
1043.89	0.003750181
1044.17	0.002379982
1044.45	0.001975861
1044.74	0.001733234
1045.02	0.002998938
1045.3	0.001209263
1045.59	0.00091497
1045.87	0.001887571
1046.15	0.001354551
1046.44	0.00084742
1046.72	0.001491987
1047	0.003216641
1047.28	0.002689638
1047.57	0.002886426
1047.85	0.002261113
1048.13	0.002119481
1048.41	0.003006964
1048.7	0.002355578
1048.98	0.001153923
1049.26	0.001754485
1049.54	0.004174529
1049.82	0.001345667
1050.11	0.00388596
1050.39	0.001912332
1050.67	0.001761998
1050.95	0.002645971
1051.23	0.001910143
1051.52	0.001007255
1051.8	0.00082484
1052.08	0.001449016
